Blade section properties
48	n_secs:	number of blade or tower sections at which properties are specified (-)

sec_loc	str_tw	tw_iner	mass_den	flp_iner	edge_iner	flp_stff	edge_stff	tor_stff	axial_stff	cg_offst	sc_offst	tc_offst
(-)	(deg)	(deg)	(kg/m)		(kg-m)		(kg-m)		(Nm^2)		(Nm^2)		(Nm^2)		(N)		(m)		(m)		(m)
0.00000	 13.308	 13.308	 678.93		 3471.36	  264.65	1.81E+10	1.81E+10	6.16E+09	8.83E+09	0.00E+00	0.00E+00	0.00E+00
0.01951	 13.308	 13.308	 773.36		 4280.64	  326.35	1.94E+10	1.96E+10	6.63E+09	1.01E+10	9.19E-02	-1.38E-02	0.00E+00
0.03577	 13.308	 13.308	 740.55		 4368.82	  333.07	1.75E+10	1.95E+10	6.28E+09	9.63E+09	1.74E-01	-2.61E-02	0.00E+00
0.05203	 13.308	 13.308	 740.04		 4644.29	  354.07	1.53E+10	1.98E+10	5.96E+09	9.62E+09	2.61E-01	-3.91E-02	0.00E+00
0.06829	 13.308	 13.308	 592.50		 2516.85	  280.44	1.08E+10	1.49E+10	4.05E+09	7.70E+09	3.53E-01	-5.29E-02	0.00E+00
0.08455	 13.308	 13.308	 450.27		 1514.13	  215.98	7.23E+09	1.02E+10	2.61E+09	5.85E+09	4.50E-01	-6.75E-02	0.00E+00
0.10081	 13.308	 13.308	 424.05		 1115.38	  205.53	6.31E+09	9.14E+09	2.19E+09	5.51E+09	5.52E-01	-8.28E-02	0.00E+00
0.11707	 13.308	 13.308	 400.64		  816.61	  195.68	5.53E+09	8.06E+09	1.81E+09	5.21E+09	6.59E-01	-9.88E-02	0.00E+00
0.13333	 13.308	 13.308	 382.06		  612.01	  188.82	4.98E+09	6.88E+09	1.51E+09	4.97E+09	7.71E-01	-1.16E-01	0.00E+00
0.14959	 13.308	 13.308	 399.65		  482.70	  198.68	4.94E+09	7.01E+09	1.44E+09	5.20E+09	8.87E-01	-1.33E-01	0.00E+00
0.16585	 13.308	 13.308	 426.32		  359.58	  210.15	4.69E+09	7.17E+09	1.30E+09	5.54E+09	9.10E-01	-1.25E-01	0.00E+00
0.18211	 13.181	 13.181	 416.82		  282.79	  200.93	3.95E+09	7.27E+09	1.16E+09	5.42E+09	9.16E-01	-1.15E-01	0.00E+00
0.19837	 12.848	 12.848	 406.19		  207.26	  189.24	3.39E+09	7.08E+09	9.84E+08	5.28E+09	9.20E-01	-1.04E-01	0.00E+00
0.21463	 12.192	 12.192	 381.42		   75.17	  164.16	2.93E+09	6.24E+09	3.73E+08	4.96E+09	9.25E-01	-9.28E-02	0.00E+00
0.23089	 11.561	 11.561	 352.82		   48.73	  149.61	2.57E+09	5.05E+09	2.14E+08	4.59E+09	9.30E-01	-8.17E-02	0.00E+00
0.24715	 11.072	 11.072	 349.48		   32.48	  141.62	2.39E+09	4.95E+09	1.47E+08	4.54E+09	9.22E-01	-6.96E-02	0.00E+00
0.26341	 10.792	 10.792	 346.54		   27.21	  134.10	2.27E+09	4.81E+09	1.42E+08	4.50E+09	9.13E-01	-5.75E-02	0.00E+00
0.29593	 10.232	 10.232	 339.33		   22.00	  122.36	2.05E+09	4.50E+09	1.33E+08	4.41E+09	8.94E-01	-3.41E-02	0.00E+00
0.32846	  9.672	  9.672	 330.00		   18.71	  111.64	1.83E+09	4.24E+09	1.24E+08	4.29E+09	8.74E-01	-1.16E-02	0.00E+00
0.36098	  9.110	  9.110	 321.99		   15.59	  101.52	1.59E+09	4.00E+09	1.16E+08	4.19E+09	8.53E-01	9.87E-03	0.00E+00
0.39350	  8.534	  8.534	 313.82		   12.55	   91.05	1.36E+09	3.75E+09	1.08E+08	4.08E+09	8.30E-01	3.02E-02	0.00E+00
0.42602	  7.932	  7.932	 294.73		    8.51	   75.59	1.10E+09	3.45E+09	1.02E+08	3.83E+09	8.07E-01	4.94E-02	0.00E+00
0.45854	  7.321	  7.321	 287.12		    5.57	   64.16	8.76E+08	3.14E+09	9.65E+07	3.73E+09	7.82E-01	6.73E-02	0.00E+00
0.49106	  6.711	  6.711	 263.34		    3.39	   52.77	6.81E+08	2.73E+09	8.54E+07	3.42E+09	7.57E-01	8.40E-02	0.00E+00
0.52358	  6.122	  6.122	 253.21		    2.56	   47.72	5.35E+08	2.55E+09	7.72E+07	3.29E+09	7.32E-01	9.95E-02	0.00E+00
0.55610	  5.546	  5.546	 241.67		    1.85	   43.51	4.09E+08	2.33E+09	6.86E+07	3.14E+09	7.08E-01	1.14E-01	0.00E+00
0.58862	  4.971	  4.971	 220.64		    1.39	   37.72	3.15E+08	1.83E+09	5.36E+07	2.87E+09	6.84E-01	1.27E-01	0.00E+00
0.62114	  4.401	  4.401	 200.29		    1.01	   32.53	2.39E+08	1.58E+09	4.56E+07	2.60E+09	6.60E-01	1.39E-01	0.00E+00
0.65366	  3.834	  3.834	 179.40		    0.69	   27.82	1.76E+08	1.32E+09	3.72E+07	2.33E+09	6.36E-01	1.50E-01	0.00E+00
0.68618	  3.332	  3.332	 165.09		    0.45	   24.86	1.26E+08	1.18E+09	3.16E+07	2.15E+09	6.12E-01	1.59E-01	0.00E+00
0.71870	  2.890	  2.890	 154.41		    0.34	   21.98	1.07E+08	1.02E+09	2.67E+07	2.01E+09	5.88E-01	1.68E-01	0.00E+00
0.75122	  2.503	  2.503	 138.94		    0.24	   18.67	9.09E+07	7.98E+08	2.06E+07	1.81E+09	5.64E-01	1.75E-01	0.00E+00
0.78374	  2.116	  2.116	 129.56		    0.17	   16.37	7.63E+07	7.10E+08	1.79E+07	1.68E+09	5.40E-01	1.81E-01	0.00E+00
0.81626	  1.730	  1.730	 107.26		    0.11	   12.68	6.10E+07	5.18E+08	1.29E+07	1.39E+09	5.16E-01	1.86E-01	0.00E+00
0.84878	  1.342	  1.342	  98.78		    0.09	   10.54	4.95E+07	4.55E+08	1.13E+07	1.28E+09	4.92E-01	1.89E-01	0.00E+00
0.88130	  0.954	  0.954	  90.25		    0.08	    8.62	3.94E+07	3.95E+08	9.83E+06	1.17E+09	4.68E-01	1.92E-01	0.00E+00
0.89756	  0.760	  0.760	  83.00		    0.06	    7.58	3.47E+07	3.54E+08	8.65E+06	1.08E+09	4.54E-01	1.91E-01	0.00E+00
0.91382	  0.574	  0.574	  72.91		    0.05	    6.25	3.04E+07	3.05E+08	7.39E+06	9.48E+08	4.37E-01	1.90E-01	0.00E+00
0.93008	  0.404	  0.404	  68.77		    0.04	    5.53	2.65E+07	2.81E+08	6.71E+06	8.94E+08	4.21E-01	1.88E-01	0.00E+00
0.93821	  0.319	  0.319	  66.26		    0.03	    4.93	2.38E+07	2.62E+08	6.17E+06	8.61E+08	4.03E-01	1.82E-01	0.00E+00
0.94634	  0.253	  0.253	  59.34		    0.02	    3.86	1.96E+07	1.59E+08	3.89E+06	7.71E+08	3.78E-01	1.74E-01	0.00E+00
0.95447	  0.216	  0.216	  55.91		    0.02	    3.16	1.60E+07	1.38E+08	3.38E+06	7.27E+08	3.54E-01	1.65E-01	0.00E+00
0.96260	  0.178	  0.178	  52.48		    0.02	    2.55	1.28E+07	1.19E+08	2.90E+06	6.82E+08	3.29E-01	1.55E-01	0.00E+00
0.97073	  0.140	  0.140	  49.11		    0.02	    2.04	1.01E+07	1.02E+08	2.47E+06	6.38E+08	3.05E-01	1.46E-01	0.00E+00
0.97886	  0.101	  0.101	  45.82		    0.01	    1.61	7.55E+06	8.51E+07	2.05E+06	5.96E+08	2.81E-01	1.36E-01	0.00E+00
0.98699	  0.062	  0.062	  41.67		    0.01	    1.22	4.60E+06	6.43E+07	1.52E+06	5.42E+08	2.56E-01	1.26E-01	0.00E+00
0.99512	  0.023	  0.023	  11.45		    0.00	    0.28	2.50E+05	6.61E+06	1.52E+05	1.49E+08	2.32E-01	1.15E-01	0.00E+00
1.00000	  0.000	  0.000	  10.32		    0.00	    0.22	1.70E+05	5.01E+06	1.15E+05	1.34E+08	2.17E-01	1.09E-01	0.00E+00
